P (MPa)		T (K)		r (km)		rho (kg m-3)	VP (km s-1)	VS (km s-1)	QS/gamma	KS (GPa)	GS (GPa)	g (m/s2)	phase	k (S m-1)	
0.00000e+00	6.00000e+01	2.35800e+02	9.33664e+02	4.26307e+00	2.26896e+00	4.56125e+01	1.05596e+01	4.80677e+00	7.68092e-02	1.00000e+00	0.00000e+00
1.81785e-01	6.49769e+01	2.33265e+02	9.33664e+02	4.25703e+00	2.26128e+00	4.56125e+01	1.05546e+01	4.77417e+00	7.64814e-02	1.00000e+00	0.00000e+00
3.63570e-01	7.03666e+01	2.30719e+02	9.33629e+02	4.25029e+00	2.25296e+00	4.56125e+01	1.05474e+01	4.73892e+00	7.61634e-02	1.00000e+00	0.00000e+00
5.45356e-01	7.62035e+01	2.28163e+02	9.33574e+02	4.24273e+00	2.24395e+00	4.56125e+01	1.05372e+01	4.70083e+00	7.58558e-02	1.00000e+00	0.00000e+00
7.27141e-01	8.25244e+01	2.25596e+02	9.33495e+02	4.23420e+00	2.23420e+00	4.56125e+01	1.05232e+01	4.65966e+00	7.55596e-02	1.00000e+00	0.00000e+00
9.08926e-01	8.93697e+01	2.23019e+02	9.33382e+02	4.22455e+00	2.22365e+00	4.56125e+01	1.05043e+01	4.61521e+00	7.52755e-02	1.00000e+00	0.00000e+00
1.09071e+00	9.67828e+01	2.20431e+02	9.33224e+02	4.21358e+00	2.21225e+00	4.56125e+01	1.04790e+01	4.56724e+00	7.50043e-02	1.00000e+00	0.00000e+00
1.27250e+00	1.04811e+02	2.17834e+02	9.33009e+02	4.20106e+00	2.19993e+00	4.56125e+01	1.04459e+01	4.51549e+00	7.47472e-02	1.00000e+00	0.00000e+00
1.45428e+00	1.13505e+02	2.15228e+02	9.32718e+02	4.18675e+00	2.18664e+00	4.56125e+01	1.04032e+01	4.45971e+00	7.45052e-02	1.00000e+00	0.00000e+00
1.63607e+00	1.22920e+02	2.12612e+02	9.32333e+02	4.17037e+00	2.17232e+00	4.56125e+01	1.03489e+01	4.39964e+00	7.42794e-02	1.00000e+00	0.00000e+00
1.81785e+00	1.33116e+02	2.09987e+02	9.31830e+02	4.15161e+00	2.15687e+00	4.56125e+01	1.02810e+01	4.33497e+00	7.40713e-02	1.00000e+00	0.00000e+00
1.99964e+00	1.44157e+02	2.07353e+02	9.31183e+02	4.13016e+00	2.14024e+00	4.56125e+01	1.01971e+01	4.26542e+00	7.38821e-02	1.00000e+00	0.00000e+00
2.18142e+00	1.56115e+02	2.04711e+02	9.30365e+02	4.10568e+00	2.12233e+00	4.56125e+01	1.00953e+01	4.19063e+00	7.37135e-02	1.00000e+00	0.00000e+00
2.36321e+00	1.69065e+02	2.02060e+02	9.29345e+02	4.07782e+00	2.10304e+00	4.56125e+01	9.97338e+00	4.11027e+00	7.35673e-02	1.00000e+00	0.00000e+00
2.54499e+00	1.83088e+02	1.99401e+02	9.28092e+02	4.04629e+00	2.08223e+00	4.56125e+01	9.82989e+00	4.02392e+00	7.34453e-02	1.00000e+00	0.00000e+00
2.72678e+00	1.98275e+02	1.96734e+02	9.26573e+02	4.01080e+00	2.05978e+00	4.56125e+01	9.66375e+00	3.93116e+00	7.33497e-02	1.00000e+00	0.00000e+00
2.90856e+00	2.14722e+02	1.94060e+02	9.24755e+02	3.97115e+00	2.03550e+00	4.56125e+01	9.47471e+00	3.83150e+00	7.32827e-02	1.00000e+00	0.00000e+00
3.09035e+00	2.32533e+02	1.91377e+02	9.22603e+02	3.92721e+00	2.00920e+00	4.56125e+01	9.26338e+00	3.72443e+00	7.32470e-02	1.00000e+00	0.00000e+00
3.27213e+00	2.51821e+02	1.88687e+02	9.20080e+02	3.87895e+00	1.98063e+00	4.56125e+01	9.03126e+00	3.60936e+00	7.32452e-02	1.00000e+00	0.00000e+00
3.45392e+00	2.72709e+02	1.85990e+02	9.17148e+02	3.82640e+00	1.94950e+00	4.56125e+01	8.78068e+00	3.48567e+00	7.32804e-02	1.00000e+00	0.00000e+00
3.61938e+00	2.75636e+02	1.83742e+02	1.00452e+03	1.42490e+00	0.00000e+00	0.00000e+00	2.03950e+00	0.00000e+00	7.31676e-02	0.00000e+00	3.72840e-01
3.78484e+00	2.75636e+02	1.81491e+02	1.00460e+03	1.42516e+00	0.00000e+00	0.00000e+00	2.04043e+00	0.00000e+00	7.30739e-02	0.00000e+00	3.72950e-01
3.95030e+00	2.75636e+02	1.79237e+02	1.00468e+03	1.42543e+00	0.00000e+00	0.00000e+00	2.04135e+00	0.00000e+00	7.30005e-02	0.00000e+00	3.73061e-01
4.11576e+00	2.75636e+02	1.76981e+02	1.00476e+03	1.42569e+00	0.00000e+00	0.00000e+00	2.04228e+00	0.00000e+00	7.29483e-02	0.00000e+00	3.73171e-01
4.28122e+00	2.75636e+02	1.74724e+02	1.00484e+03	1.42596e+00	0.00000e+00	0.00000e+00	2.04321e+00	0.00000e+00	7.29186e-02	0.00000e+00	3.73281e-01
4.44668e+00	2.75636e+02	1.72466e+02	1.00493e+03	1.42622e+00	0.00000e+00	0.00000e+00	2.04413e+00	0.00000e+00	7.29127e-02	0.00000e+00	3.73392e-01
4.61215e+00	2.75636e+02	1.70208e+02	1.00501e+03	1.42649e+00	0.00000e+00	0.00000e+00	2.04506e+00	0.00000e+00	7.29318e-02	0.00000e+00	3.73502e-01
4.77761e+00	2.75636e+02	1.67951e+02	1.00509e+03	1.42675e+00	0.00000e+00	0.00000e+00	2.04599e+00	0.00000e+00	7.29772e-02	0.00000e+00	3.73612e-01
4.94307e+00	2.75636e+02	1.65695e+02	1.00517e+03	1.42702e+00	0.00000e+00	0.00000e+00	2.04691e+00	0.00000e+00	7.30504e-02	0.00000e+00	3.73722e-01
5.10853e+00	2.75636e+02	1.63442e+02	1.00525e+03	1.42729e+00	0.00000e+00	0.00000e+00	2.04784e+00	0.00000e+00	7.31527e-02	0.00000e+00	3.73832e-01
5.27399e+00	2.75636e+02	1.61192e+02	1.00533e+03	1.42755e+00	0.00000e+00	0.00000e+00	2.04877e+00	0.00000e+00	7.32858e-02	0.00000e+00	3.73942e-01
5.43945e+00	2.75636e+02	1.58947e+02	1.00541e+03	1.42782e+00	0.00000e+00	0.00000e+00	2.04970e+00	0.00000e+00	7.34510e-02	0.00000e+00	3.74052e-01
5.60491e+00	2.75636e+02	1.56706e+02	1.00549e+03	1.42809e+00	0.00000e+00	0.00000e+00	2.05063e+00	0.00000e+00	7.36501e-02	0.00000e+00	3.74162e-01
5.77037e+00	2.75636e+02	1.54472e+02	1.00558e+03	1.42835e+00	0.00000e+00	0.00000e+00	2.05156e+00	0.00000e+00	7.38847e-02	0.00000e+00	3.74272e-01
5.93583e+00	2.75636e+02	1.52245e+02	1.00566e+03	1.42862e+00	0.00000e+00	0.00000e+00	2.05249e+00	0.00000e+00	7.41564e-02	0.00000e+00	3.74381e-01
6.10129e+00	2.75636e+02	1.50027e+02	1.00574e+03	1.42888e+00	0.00000e+00	0.00000e+00	2.05342e+00	0.00000e+00	7.44669e-02	0.00000e+00	3.74491e-01
6.26675e+00	2.75636e+02	1.47818e+02	1.00582e+03	1.42915e+00	0.00000e+00	0.00000e+00	2.05436e+00	0.00000e+00	7.48181e-02	0.00000e+00	3.74601e-01
6.43221e+00	2.75636e+02	1.45619e+02	1.00590e+03	1.42942e+00	0.00000e+00	0.00000e+00	2.05529e+00	0.00000e+00	7.52118e-02	0.00000e+00	3.74710e-01
6.59767e+00	2.75637e+02	1.43432e+02	1.00598e+03	1.42968e+00	0.00000e+00	0.00000e+00	2.05622e+00	0.00000e+00	7.56497e-02	0.00000e+00	3.74820e-01
6.76314e+00	2.75637e+02	1.41258e+02	1.00606e+03	1.42995e+00	0.00000e+00	0.00000e+00	2.05716e+00	0.00000e+00	7.61337e-02	0.00000e+00	3.74929e-01
6.92860e+00	2.75637e+02	1.39098e+02	1.00614e+03	1.43022e+00	0.00000e+00	0.00000e+00	2.05809e+00	0.00000e+00	7.66657e-02	0.00000e+00	3.75039e-01
7.09406e+00	2.75637e+02	1.36953e+02	1.00622e+03	1.43049e+00	0.00000e+00	0.00000e+00	2.05902e+00	0.00000e+00	7.72476e-02	0.00000e+00	3.75148e-01
7.25952e+00	2.75637e+02	1.34825e+02	1.00630e+03	1.43075e+00	0.00000e+00	0.00000e+00	2.05996e+00	0.00000e+00	7.78813e-02	0.00000e+00	3.75258e-01
7.42498e+00	2.75637e+02	1.32714e+02	1.00638e+03	1.43102e+00	0.00000e+00	0.00000e+00	2.06089e+00	0.00000e+00	7.85686e-02	0.00000e+00	3.75367e-01
7.59044e+00	2.75637e+02	1.30621e+02	1.00647e+03	1.43129e+00	0.00000e+00	0.00000e+00	2.06183e+00	0.00000e+00	7.93116e-02	0.00000e+00	3.75476e-01
7.75590e+00	2.75637e+02	1.28549e+02	1.00655e+03	1.43156e+00	0.00000e+00	0.00000e+00	2.06277e+00	0.00000e+00	8.01120e-02	0.00000e+00	3.75585e-01
7.92136e+00	2.75638e+02	1.26497e+02	1.00663e+03	1.43182e+00	0.00000e+00	0.00000e+00	2.06370e+00	0.00000e+00	8.09717e-02	0.00000e+00	3.75694e-01
8.08682e+00	2.75638e+02	1.24467e+02	1.00671e+03	1.43209e+00	0.00000e+00	0.00000e+00	2.06464e+00	0.00000e+00	8.18926e-02	0.00000e+00	3.75804e-01
8.25228e+00	2.75638e+02	1.22460e+02	1.00679e+03	1.43236e+00	0.00000e+00	0.00000e+00	2.06558e+00	0.00000e+00	8.28765e-02	0.00000e+00	3.75913e-01
8.41774e+00	2.75638e+02	1.20477e+02	1.00687e+03	1.43263e+00	0.00000e+00	0.00000e+00	2.06652e+00	0.00000e+00	8.39251e-02	0.00000e+00	3.76022e-01
8.58320e+00	2.75638e+02	1.18520e+02	1.00695e+03	1.43289e+00	0.00000e+00	0.00000e+00	2.06746e+00	0.00000e+00	8.50402e-02	0.00000e+00	3.76130e-01
8.74867e+00	2.75638e+02	1.16587e+02	1.00703e+03	1.43316e+00	0.00000e+00	0.00000e+00	2.06840e+00	0.00000e+00	8.62234e-02	0.00000e+00	3.76239e-01
8.91413e+00	2.75639e+02	1.14682e+02	1.00711e+03	1.43343e+00	0.00000e+00	0.00000e+00	2.06934e+00	0.00000e+00	8.74763e-02	0.00000e+00	3.76348e-01
9.07959e+00	2.75639e+02	1.12804e+02	1.00719e+03	1.43370e+00	0.00000e+00	0.00000e+00	2.07028e+00	0.00000e+00	8.88005e-02	0.00000e+00	3.76457e-01
9.24505e+00	2.75639e+02	1.10954e+02	1.00727e+03	1.43397e+00	0.00000e+00	0.00000e+00	2.07122e+00	0.00000e+00	9.01975e-02	0.00000e+00	3.76566e-01
9.41051e+00	2.75639e+02	1.09133e+02	1.00735e+03	1.43424e+00	0.00000e+00	0.00000e+00	2.07216e+00	0.00000e+00	9.16687e-02	0.00000e+00	3.76674e-01
9.57597e+00	2.75639e+02	1.07342e+02	1.00743e+03	1.43451e+00	0.00000e+00	0.00000e+00	2.07310e+00	0.00000e+00	9.32154e-02	0.00000e+00	3.76783e-01
9.74143e+00	2.75640e+02	1.05580e+02	1.00751e+03	1.43477e+00	0.00000e+00	0.00000e+00	2.07404e+00	0.00000e+00	9.48389e-02	0.00000e+00	3.76891e-01
9.90689e+00	2.75640e+02	1.03848e+02	1.00759e+03	1.43504e+00	0.00000e+00	0.00000e+00	2.07499e+00	0.00000e+00	9.65403e-02	0.00000e+00	3.77000e-01
1.00724e+01	2.75640e+02	1.02147e+02	1.00767e+03	1.43531e+00	0.00000e+00	0.00000e+00	2.07593e+00	0.00000e+00	9.83208e-02	0.00000e+00	3.77108e-01
1.02378e+01	2.75640e+02	1.00477e+02	1.00775e+03	1.43558e+00	0.00000e+00	0.00000e+00	2.07687e+00	0.00000e+00	1.00181e-01	0.00000e+00	3.77217e-01
1.04033e+01	2.75641e+02	9.88386e+01	1.00783e+03	1.43585e+00	0.00000e+00	0.00000e+00	2.07782e+00	0.00000e+00	1.02123e-01	0.00000e+00	3.77325e-01
1.05687e+01	2.75641e+02	9.72312e+01	1.00791e+03	1.43612e+00	0.00000e+00	0.00000e+00	2.07876e+00	0.00000e+00	1.04146e-01	0.00000e+00	3.77433e-01
1.07342e+01	2.75641e+02	9.56550e+01	1.00799e+03	1.43639e+00	0.00000e+00	0.00000e+00	2.07971e+00	0.00000e+00	1.06252e-01	0.00000e+00	3.77542e-01
1.08997e+01	2.75641e+02	9.41103e+01	1.00807e+03	1.43666e+00	0.00000e+00	0.00000e+00	2.08065e+00	0.00000e+00	1.08442e-01	0.00000e+00	3.77650e-01
1.10651e+01	2.75642e+02	9.25968e+01	1.00815e+03	1.43693e+00	0.00000e+00	0.00000e+00	2.08160e+00	0.00000e+00	1.10715e-01	0.00000e+00	3.77758e-01
1.12306e+01	2.75642e+02	9.11145e+01	1.00824e+03	1.43720e+00	0.00000e+00	0.00000e+00	2.08255e+00	0.00000e+00	1.13073e-01	0.00000e+00	3.77866e-01
1.13960e+01	2.75642e+02	8.96633e+01	1.00832e+03	1.43747e+00	0.00000e+00	0.00000e+00	2.08349e+00	0.00000e+00	1.15516e-01	0.00000e+00	3.77974e-01
1.15615e+01	2.75642e+02	8.82428e+01	1.00840e+03	1.43774e+00	0.00000e+00	0.00000e+00	2.08444e+00	0.00000e+00	1.18044e-01	0.00000e+00	3.78082e-01
1.17270e+01	2.75643e+02	8.68529e+01	1.00848e+03	1.43801e+00	0.00000e+00	0.00000e+00	2.08539e+00	0.00000e+00	1.20658e-01	0.00000e+00	3.78190e-01
1.18924e+01	2.75643e+02	8.54933e+01	1.00856e+03	1.43828e+00	0.00000e+00	0.00000e+00	2.08634e+00	0.00000e+00	1.23358e-01	0.00000e+00	3.78298e-01
1.20579e+01	2.75643e+02	8.41634e+01	1.00864e+03	1.43855e+00	0.00000e+00	0.00000e+00	2.08729e+00	0.00000e+00	1.26145e-01	0.00000e+00	3.78406e-01
1.22233e+01	2.75644e+02	8.28631e+01	2.67155e+03	4.03800e+00	8.68851e-01	8.70525e+12	8.18256e+01	2.72752e+01	1.29018e-01	5.00000e+01	0.00000e+00
1.22448e+01	2.75644e+02	8.28078e+01	2.67171e+03	4.03868e+00	8.69503e-01	8.70578e+12	8.18256e+01	2.72752e+01	1.29018e-01	5.00000e+01	0.00000e+00
1.22663e+01	2.75644e+02	8.27525e+01	2.67187e+03	4.03936e+00	8.70155e-01	8.70632e+12	8.18256e+01	2.72752e+01	1.29018e-01	5.00000e+01	0.00000e+00
1.22877e+01	2.75644e+02	8.26973e+01	2.67203e+03	4.04004e+00	8.70807e-01	8.70685e+12	8.18256e+01	2.72752e+01	1.29018e-01	5.00000e+01	0.00000e+00
1.23092e+01	2.75644e+02	8.26420e+01	2.67219e+03	4.04071e+00	8.71458e-01	8.70739e+12	8.18257e+01	2.72752e+01	1.29018e-01	5.00000e+01	0.00000e+00
1.23306e+01	2.75644e+02	8.25867e+01	2.67235e+03	4.04139e+00	8.72110e-01	8.70792e+12	8.18257e+01	2.72752e+01	1.29018e-01	5.00000e+01	0.00000e+00
1.23521e+01	2.75644e+02	8.25314e+01	2.67251e+03	4.04207e+00	8.72761e-01	8.70846e+12	8.18257e+01	2.72753e+01	1.29018e-01	5.00000e+01	0.00000e+00
1.23736e+01	2.75644e+02	8.24761e+01	2.67267e+03	4.04275e+00	8.73412e-01	8.70900e+12	8.18257e+01	2.72753e+01	1.29018e-01	5.00000e+01	0.00000e+00
1.23950e+01	2.75644e+02	8.24209e+01	2.67283e+03	4.04343e+00	8.74063e-01	8.70953e+12	8.18258e+01	2.72753e+01	1.29018e-01	5.00000e+01	0.00000e+00
1.24165e+01	2.75644e+02	8.23656e+01	2.67299e+03	4.04410e+00	8.74714e-01	8.71007e+12	8.18258e+01	2.72753e+01	1.29018e-01	5.00000e+01	0.00000e+00
1.24379e+01	2.75644e+02	8.23103e+01	2.67315e+03	4.04478e+00	8.75365e-01	8.71061e+12	8.18258e+01	2.72753e+01	1.29018e-01	5.00000e+01	0.00000e+00
1.24594e+01	2.75644e+02	8.22550e+01	2.67331e+03	4.04546e+00	8.76015e-01	8.71114e+12	8.18259e+01	2.72753e+01	1.29018e-01	5.00000e+01	0.00000e+00
1.24809e+01	2.75644e+02	8.21997e+01	2.67347e+03	4.04613e+00	8.76666e-01	8.71168e+12	8.18259e+01	2.72753e+01	1.29018e-01	5.00000e+01	0.00000e+00
1.25023e+01	2.75644e+02	8.21445e+01	2.67363e+03	4.04681e+00	8.77316e-01	8.71221e+12	8.18259e+01	2.72753e+01	1.29018e-01	5.00000e+01	0.00000e+00
1.25238e+01	2.75644e+02	8.20892e+01	2.67379e+03	4.04749e+00	8.77966e-01	8.71275e+12	8.18259e+01	2.72753e+01	1.29018e-01	5.00000e+01	0.00000e+00
1.25452e+01	2.75644e+02	8.20339e+01	2.67395e+03	4.04816e+00	8.78616e-01	8.71329e+12	8.18260e+01	2.72753e+01	1.29018e-01	5.00000e+01	0.00000e+00
1.25667e+01	2.75644e+02	8.19786e+01	2.67411e+03	4.04884e+00	8.79266e-01	8.71382e+12	8.18260e+01	2.72753e+01	1.29018e-01	5.00000e+01	0.00000e+00
1.25882e+01	2.75644e+02	8.19233e+01	2.67427e+03	4.04952e+00	8.79916e-01	8.71436e+12	8.18260e+01	2.72753e+01	1.29018e-01	5.00000e+01	0.00000e+00
1.26096e+01	2.75644e+02	8.18681e+01	2.67442e+03	4.05019e+00	8.80565e-01	8.71490e+12	8.18260e+01	2.72754e+01	1.29018e-01	5.00000e+01	0.00000e+00
1.26311e+01	2.75644e+02	8.18128e+01	2.67458e+03	4.05087e+00	8.81215e-01	8.71543e+12	8.18261e+01	2.72754e+01	1.29018e-01	5.00000e+01	0.00000e+00
1.26525e+01	2.75644e+02	8.17575e+01	2.67474e+03	4.05154e+00	8.81864e-01	8.71597e+12	8.18261e+01	2.72754e+01	1.29018e-01	5.00000e+01	0.00000e+00
1.26740e+01	2.75644e+02	8.17022e+01	2.67490e+03	4.05222e+00	8.82513e-01	8.71650e+12	8.18261e+01	2.72754e+01	1.29018e-01	5.00000e+01	0.00000e+00
1.26955e+01	2.75644e+02	8.16470e+01	2.67506e+03	4.05290e+00	8.83162e-01	8.71704e+12	8.18261e+01	2.72754e+01	1.29018e-01	5.00000e+01	0.00000e+00
1.27169e+01	2.75644e+02	8.15917e+01	2.67522e+03	4.05357e+00	8.83811e-01	8.71758e+12	8.18262e+01	2.72754e+01	1.29018e-01	5.00000e+01	0.00000e+00
1.27384e+01	2.75644e+02	8.15364e+01	2.67538e+03	4.05425e+00	8.84460e-01	8.71811e+12	8.18262e+01	2.72754e+01	1.29018e-01	5.00000e+01	0.00000e+00
1.27599e+01	2.75644e+02	8.14811e+01	2.67553e+03	4.05492e+00	8.85108e-01	8.71865e+12	8.18262e+01	2.72754e+01	1.29018e-01	5.00000e+01	0.00000e+00
1.27813e+01	2.75644e+02	8.14258e+01	2.67569e+03	4.05560e+00	8.85757e-01	8.71919e+12	8.18262e+01	2.72754e+01	1.29018e-01	5.00000e+01	0.00000e+00
1.28028e+01	2.75644e+02	8.13706e+01	2.67585e+03	4.05627e+00	8.86405e-01	8.71972e+12	8.18263e+01	2.72754e+01	1.29018e-01	5.00000e+01	0.00000e+00
1.28242e+01	2.75644e+02	8.13153e+01	2.67601e+03	4.05694e+00	8.87053e-01	8.72026e+12	8.18263e+01	2.72754e+01	1.29018e-01	5.00000e+01	0.00000e+00
1.28457e+01	2.75644e+02	8.12600e+01	2.67617e+03	4.05762e+00	8.87701e-01	8.72080e+12	8.18263e+01	2.72755e+01	1.29018e-01	5.00000e+01	0.00000e+00
1.28672e+01	2.75644e+02	8.12047e+01	2.67632e+03	4.05829e+00	8.88349e-01	8.72133e+12	8.18264e+01	2.72755e+01	1.29018e-01	5.00000e+01	0.00000e+00
1.28886e+01	2.75644e+02	8.11494e+01	2.67648e+03	4.05897e+00	8.88997e-01	8.72187e+12	8.18264e+01	2.72755e+01	1.29018e-01	5.00000e+01	0.00000e+00
1.29101e+01	2.75644e+02	8.10942e+01	2.67664e+03	4.05964e+00	8.89644e-01	8.72241e+12	8.18264e+01	2.72755e+01	1.29018e-01	5.00000e+01	0.00000e+00
1.29315e+01	2.75644e+02	8.10389e+01	2.67680e+03	4.06032e+00	8.90291e-01	8.72295e+12	8.18264e+01	2.72755e+01	1.29018e-01	5.00000e+01	0.00000e+00
1.29530e+01	2.75644e+02	8.09836e+01	2.67695e+03	4.06099e+00	8.90939e-01	8.72348e+12	8.18265e+01	2.72755e+01	1.29018e-01	5.00000e+01	0.00000e+00
1.29745e+01	2.75644e+02	8.09283e+01	2.67711e+03	4.06166e+00	8.91586e-01	8.72402e+12	8.18265e+01	2.72755e+01	1.29018e-01	5.00000e+01	0.00000e+00
1.29959e+01	2.75644e+02	8.08730e+01	2.67727e+03	4.06234e+00	8.92233e-01	8.72456e+12	8.18265e+01	2.72755e+01	1.29018e-01	5.00000e+01	0.00000e+00
1.30174e+01	2.75644e+02	8.08178e+01	2.67742e+03	4.06301e+00	8.92880e-01	8.72509e+12	8.18265e+01	2.72755e+01	1.29018e-01	5.00000e+01	0.00000e+00
1.30388e+01	2.75644e+02	8.07625e+01	2.67758e+03	4.06368e+00	8.93526e-01	8.72563e+12	8.18266e+01	2.72755e+01	1.29018e-01	5.00000e+01	0.00000e+00
1.30603e+01	2.75644e+02	8.07072e+01	2.67774e+03	4.06436e+00	8.94173e-01	8.72617e+12	8.18266e+01	2.72755e+01	1.29018e-01	5.00000e+01	0.00000e+00
1.30818e+01	2.75644e+02	8.06519e+01	2.67790e+03	4.06503e+00	8.94819e-01	8.72670e+12	8.18266e+01	2.72755e+01	1.29018e-01	5.00000e+01	0.00000e+00
1.31032e+01	2.75644e+02	8.05967e+01	2.67805e+03	4.06570e+00	8.95465e-01	8.72724e+12	8.18266e+01	2.72756e+01	1.29018e-01	5.00000e+01	0.00000e+00
1.31247e+01	2.75644e+02	8.05414e+01	2.67821e+03	4.06637e+00	8.96111e-01	8.72778e+12	8.18267e+01	2.72756e+01	1.29018e-01	5.00000e+01	0.00000e+00
1.31461e+01	2.75644e+02	8.04861e+01	2.67837e+03	4.06705e+00	8.96757e-01	8.72832e+12	8.18267e+01	2.72756e+01	1.29018e-01	5.00000e+01	0.00000e+00
1.31676e+01	2.75644e+02	8.04308e+01	2.67852e+03	4.06772e+00	8.97403e-01	8.72885e+12	8.18267e+01	2.72756e+01	1.29018e-01	5.00000e+01	0.00000e+00
1.31891e+01	2.75644e+02	8.03755e+01	2.67868e+03	4.06839e+00	8.98049e-01	8.72939e+12	8.18267e+01	2.72756e+01	1.29018e-01	5.00000e+01	0.00000e+00
1.32105e+01	2.75644e+02	8.03203e+01	2.67883e+03	4.06906e+00	8.98694e-01	8.72993e+12	8.18268e+01	2.72756e+01	1.29018e-01	5.00000e+01	0.00000e+00
1.32320e+01	2.75644e+02	8.02650e+01	2.67899e+03	4.06973e+00	8.99340e-01	8.73047e+12	8.18268e+01	2.72756e+01	1.29018e-01	5.00000e+01	0.00000e+00
1.32534e+01	2.75644e+02	8.02097e+01	2.67915e+03	4.07040e+00	8.99985e-01	8.73100e+12	8.18268e+01	2.72756e+01	1.29018e-01	5.00000e+01	0.00000e+00
1.32749e+01	2.75644e+02	8.01544e+01	2.67930e+03	4.07108e+00	9.00630e-01	8.73154e+12	8.18268e+01	2.72756e+01	1.29018e-01	5.00000e+01	0.00000e+00
1.32964e+01	2.75644e+02	8.00991e+01	2.67946e+03	4.07175e+00	9.01275e-01	8.73208e+12	8.18269e+01	2.72756e+01	1.29018e-01	5.00000e+01	0.00000e+00
1.33178e+01	2.75644e+02	8.00439e+01	2.67961e+03	4.07242e+00	9.01920e-01	8.73262e+12	8.18269e+01	2.72756e+01	1.29018e-01	5.00000e+01	0.00000e+00
1.33393e+01	2.75644e+02	7.99886e+01	2.67977e+03	4.07309e+00	9.02564e-01	8.73315e+12	8.18269e+01	2.72757e+01	1.29018e-01	5.00000e+01	0.00000e+00
1.33607e+01	2.75644e+02	7.99333e+01	2.67993e+03	4.07376e+00	9.03209e-01	8.73369e+12	8.18270e+01	2.72757e+01	1.29018e-01	5.00000e+01	0.00000e+00
1.33822e+01	2.75644e+02	7.98780e+01	2.68008e+03	4.07443e+00	9.03853e-01	8.73423e+12	8.18270e+01	2.72757e+01	1.29018e-01	5.00000e+01	0.00000e+00
1.34037e+01	2.75644e+02	7.98227e+01	2.68024e+03	4.07510e+00	9.04497e-01	8.73477e+12	8.18270e+01	2.72757e+01	1.29018e-01	5.00000e+01	0.00000e+00
1.34251e+01	2.75644e+02	7.97675e+01	2.68039e+03	4.07577e+00	9.05141e-01	8.73530e+12	8.18270e+01	2.72757e+01	1.29018e-01	5.00000e+01	0.00000e+00
1.34466e+01	2.75644e+02	7.97122e+01	2.68055e+03	4.07644e+00	9.05785e-01	8.73584e+12	8.18271e+01	2.72757e+01	1.29018e-01	5.00000e+01	0.00000e+00
1.34680e+01	2.75644e+02	7.96569e+01	2.68070e+03	4.07711e+00	9.06429e-01	8.73638e+12	8.18271e+01	2.72757e+01	1.29018e-01	5.00000e+01	0.00000e+00
1.34895e+01	2.75644e+02	7.96016e+01	2.68086e+03	4.07778e+00	9.07072e-01	8.73692e+12	8.18271e+01	2.72757e+01	1.29018e-01	5.00000e+01	0.00000e+00
1.35110e+01	2.75644e+02	7.95464e+01	2.68101e+03	4.07845e+00	9.07716e-01	8.73746e+12	8.18271e+01	2.72757e+01	1.29018e-01	5.00000e+01	0.00000e+00
1.35324e+01	2.75644e+02	7.94911e+01	2.68117e+03	4.07912e+00	9.08359e-01	8.73799e+12	8.18272e+01	2.72757e+01	1.29018e-01	5.00000e+01	0.00000e+00
1.35539e+01	2.75644e+02	7.94358e+01	2.68132e+03	4.07979e+00	9.09002e-01	8.73853e+12	8.18272e+01	2.72757e+01	1.29018e-01	5.00000e+01	0.00000e+00
1.35754e+01	2.75644e+02	7.93805e+01	2.68148e+03	4.08046e+00	9.09645e-01	8.73907e+12	8.18272e+01	2.72758e+01	1.29018e-01	5.00000e+01	0.00000e+00
1.35968e+01	2.75644e+02	7.93252e+01	2.68163e+03	4.08113e+00	9.10288e-01	8.73961e+12	8.18272e+01	2.72758e+01	1.29018e-01	5.00000e+01	0.00000e+00
1.36183e+01	2.75644e+02	7.92700e+01	2.68179e+03	4.08180e+00	9.10931e-01	8.74014e+12	8.18273e+01	2.72758e+01	1.29018e-01	5.00000e+01	0.00000e+00
